azimuth,elevation,temperature,humidity,vPanel,vPyra
98.08,34.627,37.2,28.1,0.782,1.073
98.137,34.687,37.4,27.7,0.783,1.072
98.328,34.884,38.4,26.2,0.794,1.085
98.519,35.082,39.7,24.5,0.795,1.085
98.71,35.279,40.9,23.0,0.799,1.088
98.902,35.476,41.6,22.2,0.807,1.098
99.095,35.673,41.5,22.3,0.816,1.109
99.286,35.867,42.2,21.3,0.821,1.113
99.477,36.061,42.9,20.7,0.821,1.111
99.668,36.254,43.6,20.0,0.831,1.123
99.858,36.445,44.1,19.6,0.835,1.127
100.054,36.641,43.5,20.1,0.844,1.136
100.251,36.837,44.0,19.8,0.856,1.149
100.448,37.034,44.7,19.3,0.86,1.154
100.646,37.23,44.3,19.3,0.865,1.161
100.845,37.426,44.2,19.4,0.873,1.164
101.045,37.622,44.5,19.0,0.882,1.176
101.245,37.817,45.1,18.6,0.888,1.181
101.443,38.01,45.4,18.3,0.902,1.195
101.645,38.205,46.1,17.8,0.903,1.194
101.848,38.401,45.1,17.6,0.913,1.21
102.051,38.596,45.0,17.7,0.914,1.211
102.255,38.791,46.0,17.2,0.92,1.215
102.457,38.983,46.5,16.5,0.929,1.227
102.659,39.174,47.1,16.0,0.934,1.233
102.863,39.366,47.0,16.0,0.937,1.238
103.067,39.557,47.4,15.8,0.937,1.236
103.268,39.745,48.3,15.2,0.944,1.24
103.477,39.939,48.6,15.0,0.957,1.259
103.687,40.133,48.4,14.9,0.963,1.265
103.898,40.327,48.2,15.3,0.972,1.276
104.11,40.52,48.7,14.9,0.974,1.275
104.322,40.714,47.7,15.4,0.978,1.284
104.536,40.907,47.5,15.3,0.982,1.286
104.75,41.1,47.4,14.6,0.981,1.286
104.966,41.293,46.8,14.6,0.99,1.298
105.182,41.486,46.9,14.2,0.995,1.303
105.396,41.675,47.1,14.8,1.001,1.309
105.614,41.867,47.7,14.2,1.015,1.325
105.83,42.056,48.1,13.9,1.01,1.319
106.046,42.245,48.4,13.0,1.022,1.333
106.268,42.437,47.6,13.2,1.023,1.333
106.486,42.625,47.5,13.3,1.024,1.334
106.709,42.816,48.6,13.0,1.031,1.339
106.934,43.007,48.0,12.5,1.039,1.346
107.155,43.195,48.2,11.7,1.042,1.349
107.382,43.385,46.7,12.1,1.043,1.351
107.609,43.576,45.4,11.9,1.056,1.365
107.838,43.766,44.8,12.9,1.058,1.367
108.067,43.955,44.2,13.1,1.065,1.374
108.298,44.145,44.9,12.9,1.09,1.395
108.53,44.334,46.4,12.0,1.111,1.41
108.763,44.523,47.1,11.1,1.121,1.416
108.998,44.712,47.9,9.5,1.128,1.422
109.226,44.895,48.3,9.6,1.131,1.421
109.477,45.095,49.4,9.2,1.155,1.445
109.693,45.265,49.4,7.2,1.161,1.445
109.928,45.45,50.0,8.6,1.171,1.452
110.164,45.634,49.8,7.3,1.184,1.462
110.406,45.821,48.4,6.1,1.193,1.469
110.649,46.008,45.5,7.3,1.194,1.476
110.893,46.195,45.5,7.2,1.207,1.485
111.154,46.393,44.6,7.7,1.208,1.485
111.381,46.564,43.8,7.9,1.209,1.487
111.629,46.75,43.3,7.8,1.211,1.488
111.879,46.935,43.6,8.0,1.216,1.49
112.13,47.12,46.3,7.1,1.232,1.5
112.382,47.305,48.2,6.1,1.23,1.5
112.635,47.489,47.3,6.5,1.248,1.514
112.891,47.673,46.0,6.7,1.261,1.525
113.143,47.854,45.8,6.9,1.268,1.531
113.397,48.034,45.5,7.0,1.269,1.533
113.648,48.211,45.7,6.9,1.278,1.538
113.905,48.391,46.3,6.9,1.287,1.543
114.163,48.57,46.8,6.7,1.273,1.534
114.427,48.752,47.5,6.4,1.298,1.551
114.693,48.933,47.8,6.2,1.291,1.543
114.96,49.114,47.8,6.4,1.297,1.549
115.228,49.295,48.3,6.0,1.302,1.552
115.499,49.475,48.8,5.8,1.311,1.559
115.771,49.655,47.9,5.6,1.321,1.57
116.04,49.832,48.2,5.9,1.328,1.572
116.315,50.011,49.0,5.5,1.327,1.574
116.592,50.19,48.6,5.7,1.331,1.577
116.871,50.368,50.0,5.4,1.346,1.586
117.151,50.546,51.4,5.2,1.36,1.591
117.433,50.723,52.7,4.9,1.366,1.594
117.713,50.897,54.0,4.5,1.368,1.595
117.994,51.071,54.6,4.4,1.375,1.601
118.277,51.244,53.5,4.6,1.383,1.61
118.566,51.419,51.6,5.1,1.39,1.618
118.853,51.591,50.0,5.4,1.393,1.622
119.146,51.766,51.0,5.4,1.404,1.629
119.511,51.981,52.0,5.2,1.409,1.633
119.737,52.113,52.2,5.2,1.419,1.64
120.036,52.286,53.5,4.8,1.424,1.641
120.337,52.459,54.6,4.4,1.433,1.648
120.64,52.631,55.6,4.1,1.432,1.642
120.945,52.802,56.4,3.9,1.443,1.649
121.252,52.973,57.5,3.6,1.451,1.654
121.556,53.14,57.6,3.9,1.453,1.656
121.867,53.31,57.3,3.9,1.455,1.661
122.18,53.479,54.8,4.1,1.455,1.665
122.495,53.648,53.1,4.4,1.459,1.67
122.812,53.816,53.1,4.6,1.464,1.672
123.132,53.983,53.5,4.4,1.472,1.678
123.454,54.15,52.6,4.7,1.494,1.703
123.773,54.314,52.1,4.9,1.489,1.697
124.088,54.474,50.8,5.1,1.49,1.701
124.412,54.636,51.2,5.0,1.488,1.696
124.737,54.798,53.0,4.0,1.508,1.714
125.065,54.959,54.7,3.5,1.507,1.71
125.4,55.122,56.2,3.4,1.505,1.705
125.738,55.284,56.9,3.3,1.514,1.713
126.078,55.446,56.0,3.6,1.522,1.72
126.42,55.607,55.4,3.3,1.52,1.718
126.765,55.767,55.6,3.5,1.532,1.729
127.107,55.924,55.3,3.4,1.528,1.731
127.457,56.082,55.9,3.4,1.55,1.747
127.81,56.24,57.4,2.7,1.559,1.747
128.165,56.398,57.0,2.7,1.571,1.759
128.522,56.554,57.3,2.2,1.58,1.767
128.882,56.71,55.5,2.6,1.584,1.773
129.245,56.865,54.6,2.4,1.586,1.774
129.605,57.016,53.4,2.7,1.587,1.777
129.973,57.17,53.0,2.7,1.585,1.775
130.344,57.322,52.5,2.8,1.592,1.781
130.717,57.474,52.5,3.1,1.59,1.779
131.087,57.622,52.3,3.3,1.596,1.784
131.46,57.77,51.8,3.3,1.595,1.785
131.836,57.916,52.6,3.1,1.6,1.789
132.214,58.062,52.4,3.1,1.62,1.806
132.589,58.205,51.1,3.4,1.611,1.8
132.973,58.349,52.5,3.4,1.619,1.803
133.366,58.494,54.9,2.8,1.626,1.805
133.761,58.639,56.1,2.1,1.631,1.808
134.16,58.782,56.1,2.3,1.631,1.81
134.561,58.925,57.4,1.9,1.634,1.809
134.966,59.067,58.3,2.0,1.648,1.821
135.374,59.207,57.8,1.8,1.652,1.823
135.778,59.345,57.2,1.9,1.651,1.825
136.191,59.483,56.9,2.0,1.662,1.832
136.608,59.621,57.0,1.8,1.673,1.842
137.027,59.757,55.8,1.9,1.665,1.837
137.45,59.893,54.4,2.2,1.67,1.843
137.876,60.027,52.6,2.5,1.667,1.843
138.298,60.158,53.0,2.4,1.671,1.847
138.73,60.29,51.8,2.7,1.668,1.845
139.165,60.421,53.0,2.9,1.675,1.851
139.603,60.551,53.9,2.4,1.682,1.853
140.045,60.68,54.5,2.4,1.682,1.853
140.49,60.807,54.9,2.4,1.684,1.853
140.938,60.933,55.6,2.2,1.694,1.86
141.381,61.056,55.0,2.2,1.691,1.859
141.821,61.176,54.2,2.3,1.695,1.863
142.271,61.297,54.0,2.2,1.703,1.869
142.725,61.417,53.4,2.3,1.709,1.875
143.181,61.535,55.2,2.1,1.712,1.874
143.641,61.652,56.1,1.8,1.726,1.884
144.111,61.769,56.7,1.9,1.709,1.87
144.584,61.886,55.7,1.7,1.729,1.887
145.061,62.0,54.4,1.6,1.729,1.889
145.534,62.112,55.6,1.7,1.732,1.891
146.017,62.224,56.6,1.2,1.73,1.887
146.504,62.335,56.0,1.2,1.731,1.891
146.993,62.444,57.2,1.4,1.733,1.89
147.486,62.552,58.2,1.1,1.729,1.887
147.983,62.659,56.9,1.3,1.732,1.89
148.482,62.764,54.1,1.4,1.734,1.902
148.977,62.865,52.5,1.8,1.733,1.897
149.483,62.967,53.2,1.7,1.742,1.904
149.993,63.068,52.9,1.5,1.741,1.905
150.505,63.167,53.0,1.5,1.743,1.906
151.021,63.264,53.2,1.5,1.741,1.905
151.54,63.36,54.5,1.4,1.744,1.908
152.062,63.454,56.3,1.3,1.752,1.909
152.587,63.547,56.5,1.5,1.751,1.914
153.116,63.638,56.6,1.1,1.759,1.917
153.639,63.725,55.4,1.4,1.756,1.914
154.165,63.812,55.3,1.4,1.761,1.922
154.693,63.896,56.4,1.2,1.756,1.917
155.225,63.979,56.4,1.3,1.753,1.913
155.76,64.061,56.2,1.1,1.748,1.909
156.298,64.14,56.0,1.2,1.757,1.917
156.838,64.218,55.8,1.5,1.762,1.923
157.381,64.295,57.3,1.3,1.771,1.927
157.936,64.37,59.6,1.1,1.774,1.927
158.494,64.444,60.6,0.9,1.776,1.929
159.054,64.516,61.1,0.8,1.778,1.927
159.617,64.587,61.1,0.7,1.769,1.93
160.183,64.655,60.2,0.8,1.777,1.933
160.752,64.722,58.8,1.0,1.784,1.941
161.314,64.785,58.4,0.8,1.778,1.937
161.887,64.848,59.7,0.7,1.75,1.922
162.463,64.909,60.0,0.7,1.779,1.934
163.041,64.968,60.0,0.8,1.771,1.931
163.622,65.025,59.2,0.8,1.769,1.932
164.205,65.08,56.0,1.3,1.769,1.938
164.79,65.133,56.6,1.1,1.762,1.935
165.368,65.184,58.0,0.8,1.766,1.934
165.957,65.233,56.9,0.8,1.76,1.933
166.549,65.28,56.9,0.9,1.756,1.929
167.142,65.326,56.6,1.0,1.765,1.936
167.728,65.368,56.4,1.0,1.762,1.935
168.315,65.409,56.6,1.0,1.765,1.937
168.904,65.447,54.7,1.4,1.76,1.938
169.485,65.483,54.5,1.5,1.755,1.935
170.077,65.518,55.4,1.4,1.754,1.933
170.671,65.551,55.2,1.1,1.751,1.932
171.275,65.582,54.0,1.3,1.745,1.93
171.881,65.611,55.2,1.3,1.747,1.933
172.488,65.638,56.8,1.1,1.755,1.937
173.096,65.663,58.0,0.9,1.765,1.944
173.706,65.686,56.6,1.1,1.762,1.946
174.306,65.706,56.0,1.3,1.761,1.946
174.917,65.724,55.3,1.5,1.753,1.941
175.529,65.741,55.5,1.1,1.751,1.938
176.141,65.755,54.7,1.1,1.749,1.939
176.755,65.767,56.0,1.0,1.752,1.94
177.368,65.777,56.9,0.8,1.757,1.944
177.982,65.785,57.6,0.8,1.753,1.941
178.587,65.791,57.8,0.8,1.75,1.945
179.201,65.795,57.2,0.9,1.748,1.94
179.816,65.796,58.1,0.8,1.751,1.939
180.43,65.795,59.0,0.6,1.748,1.938
181.045,65.793,57.7,0.9,1.748,1.939
181.659,65.788,56.4,1.1,1.744,1.938
182.264,65.781,54.8,1.2,1.737,1.937
182.858,65.772,55.7,1.2,1.733,1.934
183.461,65.761,55.4,1.5,1.731,1.935
184.064,65.748,56.5,1.2,1.735,1.935
184.667,65.733,56.7,0.9,1.734,1.932
185.269,65.716,57.9,0.8,1.734,1.935
185.879,65.696,57.6,0.8,1.735,1.935
186.489,65.674,55.9,1.0,1.733,1.936
187.088,65.651,57.0,1.0,1.723,1.933
187.696,65.625,57.8,0.7,1.728,1.93
188.302,65.597,58.9,0.7,1.731,1.932
188.907,65.567,60.6,0.5,1.733,1.933
189.511,65.535,61.9,0.3,1.734,1.933
190.114,65.5,62.6,0.2,1.728,1.933
190.714,65.464,61.3,0.4,1.733,1.936
191.314,65.426,60.0,0.4,1.727,1.935
191.911,65.385,60.3,0.3,1.725,1.931
192.507,65.343,60.1,0.4,1.735,1.94
193.092,65.299,57.0,0.5,1.716,1.928
193.684,65.253,57.1,0.5,1.722,1.933
194.274,65.204,58.0,0.5,1.71,1.928
194.862,65.154,56.8,0.5,1.708,1.928
195.448,65.101,55.5,0.7,1.707,1.927
196.032,65.047,56.0,0.7,1.702,1.922
196.605,64.992,55.2,0.8,1.707,1.928
197.175,64.934,54.8,0.8,1.7,1.925
197.743,64.875,54.7,0.9,1.699,1.929
198.308,64.814,56.6,0.7,1.7,1.925
198.871,64.751,57.0,0.4,1.696,1.924
199.432,64.687,56.8,0.7,1.702,1.929
199.99,64.62,55.6,0.7,1.701,1.932
200.545,64.552,54.6,0.8,1.704,1.938
201.107,64.481,55.3,0.8,1.648,1.881
201.666,64.408,54.7,1.1,1.563,1.806
202.223,64.333,55.1,0.9,1.164,1.477
202.776,64.256,55.4,0.8,1.341,1.659
203.327,64.178,56.4,0.8,1.265,1.574
203.874,64.098,55.7,0.5,1.245,1.55
204.411,64.017,53.7,0.6,1.37,1.635
204.952,63.934,53.4,0.9,1.622,1.874
205.491,63.848,55.0,0.8,1.732,1.964
206.027,63.761,56.0,0.7,1.488,1.773
206.56,63.673,56.7,0.6,1.707,1.942
207.089,63.582,56.0,0.4,1.781,2.007
207.607,63.492,55.2,0.4,1.735,1.948
208.131,63.398,55.2,0.5,1.795,2.024
208.651,63.303,55.5,0.4,0.88,1.151
209.168,63.206,54.3,0.7,1.087,1.424
209.682,63.108,53.7,0.7,0.965,1.27
210.185,63.01,54.3,0.7,1.106,1.429
210.684,62.91,54.2,0.8,1.281,1.578
211.172,62.811,53.5,0.8,1.313,1.599
211.666,62.708,54.7,0.6,1.606,1.856
212.156,62.604,55.5,0.4,1.433,1.685
212.643,62.498,54.4,0.5,1.045,1.367
213.134,62.39,54.3,0.7,1.445,1.681
213.622,62.28,54.7,0.6,1.617,1.83
214.107,62.168,54.7,0.6,0.976,1.296
214.589,62.055,53.3,0.5,0.649,0.81
215.06,61.943,51.0,1.0,0.595,0.766
215.535,61.827,47.7,1.2,0.553,0.686
216.007,61.711,46.0,1.6,0.589,0.752
216.476,61.592,45.0,1.9,0.745,0.982
216.941,61.473,45.4,1.5,0.724,0.924
217.403,61.352,45.0,1.8,0.559,0.699
217.862,61.23,45.0,1.9,0.836,1.087
218.311,61.108,46.6,1.7,0.784,1.031
218.763,60.984,47.0,1.6,0.526,0.648
219.212,60.858,47.3,1.7,0.714,0.906
219.658,60.731,48.6,1.6,0.615,0.786
220.101,60.603,49.7,1.2,0.654,0.817
220.541,60.473,48.3,1.6,0.524,0.643
220.977,60.343,46.0,1.7,0.495,0.6
221.404,60.213,44.8,2.1,0.465,0.555
221.827,60.082,43.2,2.3,0.431,0.514
222.248,59.951,42.2,2.7,0.443,0.528
222.665,59.818,42.5,2.7,0.5,0.603
223.079,59.684,43.1,2.4,0.499,0.599
223.491,59.549,43.8,2.4,0.779,0.997
223.899,59.413,44.2,2.3,0.923,1.188
224.305,59.276,45.6,2.0,0.995,1.284
224.714,59.136,45.3,2.1,0.516,0.611
225.12,58.995,44.2,2.2,0.466,0.545
225.523,58.853,43.5,2.4,0.438,0.511
225.923,58.71,42.8,2.6,0.42,0.487
226.32,58.565,41.7,2.7,0.414,0.478
226.715,58.42,41.0,2.7,0.407,0.469
227.106,58.274,40.7,2.9,0.404,0.465
227.488,58.13,40.8,3.2,0.405,0.467
227.874,57.982,40.5,3.2,0.407,0.47
228.257,57.833,40.5,3.4,0.41,0.476
228.637,57.684,40.6,3.3,0.421,0.493
229.014,57.533,40.9,3.4,0.442,0.522
229.389,57.382,40.4,3.3,0.502,0.611
229.755,57.232,40.8,3.2,0.521,0.63
230.124,57.079,40.8,3.2,0.509,0.614
230.491,56.925,40.6,3.3,0.548,0.672
230.855,56.771,41.6,3.3,0.622,0.776
231.216,56.615,42.7,3.0,0.613,0.763
231.574,56.459,42.4,2.9,0.57,0.703
231.925,56.304,42.8,3.1,0.688,0.882
232.273,56.149,43.8,3.0,0.675,0.851
232.613,55.996,43.6,2.6,0.655,0.827
232.956,55.839,44.2,2.8,0.707,0.908
233.296,55.682,45.3,2.7,0.688,0.882
233.635,55.524,45.2,2.6,0.629,0.788
233.971,55.365,44.4,2.9,0.542,0.667
234.31,55.203,44.6,2.9,0.51,0.622
234.646,55.04,44.1,2.9,0.542,0.673
234.975,54.88,43.1,3.3,0.634,0.802
235.307,54.716,43.5,3.1,0.743,0.971
235.642,54.548,43.7,3.0,0.789,1.039
235.964,54.386,44.7,3.0,0.854,1.137
236.289,54.22,45.7,2.8,0.965,1.295
236.611,54.053,46.3,2.4,1.063,1.429
236.932,53.886,46.7,2.3,1.09,1.453
237.25,53.718,47.9,1.9,1.211,1.562
237.562,53.552,49.2,1.7,1.258,1.608
237.876,53.383,50.9,1.6,1.319,1.667
238.188,53.214,53.6,1.5,1.322,1.676
238.497,53.044,54.6,0.9,1.334,1.683
238.805,52.873,54.9,0.8,1.317,1.676
239.111,52.702,54.7,0.8,1.312,1.673
239.419,52.527,55.0,0.9,1.326,1.687
239.716,52.358,56.0,0.8,1.307,1.672
240.011,52.188,56.3,0.7,1.273,1.648
240.304,52.017,55.8,0.6,1.259,1.638
240.595,51.846,55.6,0.6,1.231,1.618
240.885,51.674,55.4,0.7,1.221,1.608
241.172,51.502,55.2,0.7,1.199,1.593
241.458,51.33,54.0,0.9,1.19,1.589
241.741,51.157,53.3,1.0,1.171,1.576
242.019,50.986,52.3,1.0,1.157,1.566
242.304,50.809,51.4,1.2,1.16,1.571
242.587,50.632,49.9,1.1,1.127,1.545
242.868,50.455,49.3,1.2,1.123,1.547
243.148,50.276,49.4,1.2,1.113,1.539
243.425,50.098,49.8,1.0,1.099,1.53
243.702,49.919,50.4,1.2,1.086,1.519
243.972,49.742,48.6,1.2,1.062,1.499
244.244,49.563,47.4,1.4,1.054,1.495
244.515,49.383,47.2,1.4,1.041,1.486
244.785,49.202,47.9,1.3,1.028,1.473
245.053,49.021,48.9,1.1,1.027,1.481
245.319,48.84,49.7,1.1,1.015,1.464
245.584,48.658,49.7,0.9,1.007,1.453
245.843,48.479,49.4,1.1,1.001,1.451
246.104,48.296,49.1,1.0,0.99,1.437
246.364,48.113,48.9,1.1,0.989,1.442
246.623,47.93,48.1,1.1,0.98,1.424
