azimuth,elevation,temperature,humidity,vPanel,vPyra
0.371083316522,0.44892457102,0.5520684736091299,0.9778761061946902,0.4179019384264538,0.4183142559833507
0.371789388743,0.451888703527,0.5534950071326676,0.9690265486725662,0.42303306727480045,0.4203954214360042
0.372527738552,0.455001787417,0.5492154065620543,0.9867256637168141,0.42930444697833525,0.42611862643080123
0.373201533185,0.45783186368,0.5463623395149786,1.0,0.43443557582668185,0.43132154006243495
0.373911640105,0.460795996187,0.5549215406562055,0.9778761061946902,0.4395667046750285,0.4339229968782518
0.374625781723,0.463760128694,0.559201141226819,0.9690265486725662,0.44469783352337516,0.4380853277835588
0.375323784547,0.466679575786,0.5634807417974322,0.9513274336283185,0.44811858608893956,0.44068678459937566
0.376041960863,0.469643708294,0.5706134094151213,0.9336283185840708,0.4532497149372862,0.44484911550468265
0.376768206577,0.472667421354,0.5748930099857347,0.9203539823008849,0.4589509692132269,0.44849115504682624
0.377474278798,0.475586868446,0.5706134094151213,0.9292035398230087,0.4623717217787914,0.4510926118626431
0.378204559209,0.478595686368,0.5720399429386591,0.9247787610619468,0.4652223489167617,0.4557752341311134
0.378926770224,0.481559818875,0.5748930099857347,0.911504424778761,0.4697833523375142,0.459417273673257
0.379640911842,0.484479265968,0.5763195435092725,0.911504424778761,0.4749144811858609,0.4640998959417274
0.380367157555,0.487428503337,0.5820256776034237,0.8938053097345132,0.4806157354618016,0.467741935483871
0.381093403268,0.490392635844,0.5848787446504994,0.8849557522123893,0.48688711516533634,0.4724245577523413
0.381811579584,0.493312082936,0.5905848787446505,0.8672566371681416,0.4925883694412771,0.4765868886576483
0.382541859996,0.496276215443,0.5977175463623395,0.8451327433628318,0.4965792474344356,0.47866805411030183
0.383276175106,0.49924034795,0.6034236804564908,0.831858407079646,0.5039908779931584,0.48178980228928203
0.384010490216,0.502189585319,0.6077032810271042,0.8185840707964601,0.507411630558723,0.48387096774193555
0.384736735929,0.505109032412,0.6077032810271042,0.8185840707964601,0.5119726339794755,0.4864724245577524
0.385475085737,0.508058269781,0.6105563480741798,0.8097345132743362,0.5171037628278221,0.48907388137356916
0.386205366149,0.510977716873,0.6134094151212554,0.8053097345132743,0.523945267958951,0.4947970863683663
0.386947750656,0.513926954242,0.6191155492154066,0.7920353982300884,0.5302166476624858,0.4984391259105099
0.387694169861,0.516876191611,0.6205420827389444,0.7876106194690266,0.5353477765108323,0.5015608740894901
0.38845672786,0.519885009533,0.6233951497860201,0.7699115044247786,0.541049030786773,0.5041623309053069
0.389195077668,0.522789561487,0.6205420827389444,0.7831858407079645,0.5461801596351197,0.5067637877211238
0.389945531572,0.525738798856,0.6233951497860201,0.7743362831858407,0.5496009122006841,0.5088449531737773
0.390704054872,0.528688036225,0.6291012838801713,0.7654867256637168,0.5547320410490307,0.5124869927159209
0.391446439379,0.531592588179,0.6348074179743225,0.747787610619469,0.5610034207525656,0.5156087408949012
0.392208997377,0.534541825548,0.6405135520684736,0.7300884955752212,0.5667046750285063,0.5192507804370448
0.392971555376,0.537491062917,0.6405135520684736,0.7300884955752212,0.572405929304447,0.5234131113423517
0.39372200928,0.540395614871,0.6419400855920114,0.7256637168141592,0.5763968072976055,0.5254942767950053
0.394488601977,0.543329957102,0.6462196861626248,0.7168141592920353,0.5792474344355758,0.5280957336108221
0.395259229373,0.546279194471,0.6504992867332383,0.7123893805309734,0.5849486887115165,0.5317377731529657
0.396017752673,0.549168851287,0.6533523537803139,0.7035398230088495,0.5895096921322691,0.5353798126951093
0.396792414767,0.552118088656,0.6562054208273895,0.6946902654867256,0.5935005701254276,0.5390218522372529
0.397559007464,0.555007745472,0.6562054208273895,0.7035398230088495,0.5980615735461802,0.5400624349635796
0.398337704257,0.557942087703,0.6547788873038517,0.6991150442477876,0.6060433295324971,0.5437044745057232
0.399136574541,0.560921115348,0.6447931526390871,0.7256637168141592,0.6117445838084379,0.5468262226847034
0.399907201937,0.563810772164,0.6519258202567761,0.7123893805309734,0.612884834663626,0.5504682622268471
0.400698002824,0.566745114395,0.6590584878744652,0.6991150442477876,0.612884834663626,0.5525494276795005
0.401488803712,0.569679456625,0.6661911554921541,0.6769911504424778,0.6100342075256556,0.554630593132154
0.402271535203,0.572569113441,0.6718972895863053,0.663716814159292,0.6026225769669327,0.5561914672216441
0.403090578979,0.575577931363,0.6761768901569187,0.6548672566371682,0.6009122006841505,0.5593132154006244
0.403881379867,0.578467588179,0.6790299572039944,0.6504424778761061,0.5997719498289624,0.5660770031217482
0.404672180754,0.581342349857,0.68188302425107,0.6415929203539823,0.6031927023945268,0.5681581685744017
0.405475085737,0.584261796949,0.6747503566333809,0.6548672566371682,0.5929304446978335,0.5697190426638918
0.406298164212,0.587240824595,0.6776034236804566,0.6548672566371682,0.6014823261117446,0.5738813735691988
0.407097034497,0.590100691134,0.6776034236804566,0.6504424778761061,0.5997719498289624,0.5790842872008325
0.407912043575,0.593020138227,0.68188302425107,0.6371681415929203,0.596921322690992,0.5832466181061394
0.408731087351,0.595939585319,0.6833095577746078,0.6415929203539823,0.6026225769669327,0.5863683662851197
0.409542061731,0.598799451859,0.6776034236804566,0.6504424778761061,0.6117445838084379,0.5900104058272633
0.410369174904,0.601718898951,0.6718972895863053,0.663716814159292,0.6151653363740023,0.5920915712799167
0.411184183982,0.604578765491,0.6718972895863053,0.663716814159292,0.6100342075256556,0.5931321540062434
0.412015331854,0.607483317445,0.6718972895863053,0.6548672566371682,0.6145952109464082,0.5957336108220603
0.412862618519,0.610432554814,0.6733238231098432,0.6504424778761061,0.6197263397947548,0.6019771071800208
0.413689731693,0.613292421354,0.6790299572039944,0.6415929203539823,0.6191562143671608,0.6045785639958376
0.414573330644,0.616331029552,0.6861626248216833,0.6238938053097345,0.6220068415051311,0.6066597294484911
0.415380270325,0.619086630124,0.6847360912981456,0.6106194690265486,0.6277080957810718,0.6118626430801248
0.41622755699,0.621991182078,0.6790299572039944,0.6371681415929203,0.637400228050171,0.6155046826222685
0.417082913052,0.624880838894,0.6704707560627675,0.6460176991150441,0.6431014823261116,0.619146722164412
0.417954407908,0.627815181125,0.6747503566333809,0.6415929203539823,0.6516533637400228,0.6227887617065557
0.418773451684,0.630555886559,0.6833095577746078,0.6238938053097345,0.6579247434435576,0.627471383975026
0.419636877143,0.633445543375,0.6947218259629102,0.6061946902654867,0.6659064994298746,0.6311134235171697
0.420520476094,0.636379885605,0.6961483594864479,0.5973451327433628,0.6784492588369441,0.6337148803329865
0.421379866855,0.639209961868,0.6904422253922967,0.6106194690265486,0.677309007981756,0.63579604578564
0.422255396409,0.642084723546,0.6947218259629102,0.5973451327433628,0.6927023945267959,0.6399583766909469
0.42313899536,0.644959485224,0.68188302425107,0.6194690265486725,0.701254275940707,0.6430801248699272
0.424006455517,0.647789561487,0.6861626248216833,0.6106194690265486,0.701824401368301,0.6472424557752342
0.42491022796,0.650694113441,0.6990014265335236,0.588495575221239,0.7041049030786773,0.6482830385015609
0.425789792213,0.653524189704,0.7018544935805993,0.579646017699115,0.6898517673888255,0.6519250780437045
0.426689529958,0.656384056244,0.7146932952924394,0.5530973451327433,0.6927023945267959,0.6560874089490114
0.427577163607,0.659199237369,0.7089871611982883,0.5530973451327433,0.6921322690992018,0.6592091571279917
0.428497074844,0.662088894185,0.7232524964336663,0.5353982300884955,0.6915621436716078,0.6602497398543183
0.429404881985,0.664948760724,0.7332382310984309,0.5176991150442477,0.709806157354618,0.6618106139438086
0.430320758523,0.667793732126,0.738944365192582,0.504424778761062,0.7234891676168757,0.6654526534859521
0.43124066976,0.670638703527,0.7318116975748931,0.5132743362831858,0.7229190421892816,0.6701352757544226
0.4321525116,0.673438989514,0.7375178316690443,0.5088495575221239,0.7274800456100342,0.672216441207076
0.433080492233,0.676269065777,0.738944365192582,0.504424778761062,0.7240592930444698,0.6742976066597295
0.43400040347,0.679069351764,0.738944365192582,0.5,0.7229190421892816,0.6789802289281998
0.434952592294,0.681944113441,0.7417974322396577,0.495575221238938,0.7383124287343215,0.6810613943808532
0.435880572927,0.68472950429,0.746077032810271,0.48672566371681414,0.7468643101482326,0.6826222684703435
0.436828727053,0.687544685415,0.7432239657631955,0.495575221238938,0.7725199543899658,0.686264308012487
0.437813193464,0.690464132507,0.7517831669044224,0.4778761061946903,0.7725199543899658,0.6883454734651405
0.438729070002,0.693145257388,0.7589158345221114,0.4690265486725663,0.7588369441277081,0.6914672216441207
0.439689328223,0.695960438513,0.7631954350927247,0.46017699115044247,0.74230330672748,0.6940686784599376
0.440673794634,0.698805409914,0.7660485021398004,0.4513274336283185,0.7343215507411631,0.6956295525494277
0.441634052855,0.701561010486,0.7703281027104137,0.4469026548672566,0.7314709236031927,0.6971904266389178
0.442614484567,0.704361296473,0.7746077032810271,0.43805309734513276,0.7400228050171038,0.7013527575442249
0.443598950978,0.707161582459,0.7774607703281028,0.4336283185840708,0.7554161915621437,0.7060353798126952
0.444571313294,0.709917183031,0.7788873038516406,0.4336283185840708,0.7622576966932725,0.7086368366285121
0.445584022594,0.712747259295,0.7817403708987162,0.4292035398230088,0.7685290763968073,0.7117585848074923
0.446588662497,0.715517755005,0.7874465049928674,0.42035398230088494,0.7862029646522235,0.7138397502601458
0.447593302401,0.718303145853,0.7860199714693296,0.42477876106194684,0.8004561003420753,0.7174817898022893
0.448589872907,0.721028956149,0.7874465049928674,0.415929203539823,0.7753705815279363,0.7221644120707597
0.449626790397,0.723844137274,0.7917261055634808,0.415929203539823,0.7776510832383124,0.7247658688865766
0.450635464999,0.726569947569,0.7931526390870186,0.4115044247787611,0.7639680729760547,0.7273673257023934
0.451680451886,0.729370233556,0.7988587731811698,0.3982300884955752,0.7411630558722919,0.7289281997918835
0.452701230583,0.732081148713,0.804564907275321,0.3938053097345133,0.7366020524515393,0.7278876170655567
0.45374621747,0.734821854147,0.8074179743223967,0.3893805309734513,0.7143671607753705,0.7294484911550468
0.454795239056,0.737577454719,0.8088445078459345,0.3893805309734513,0.7143671607753705,0.7346514047866806
0.455836191245,0.740273474738,0.8102710413694723,0.3805309734513274,0.7240592930444698,0.7419354838709677
0.456897316926,0.742999285033,0.8145506419400856,0.37610619469026546,0.717787913340935,0.7403746097814776
0.457946338511,0.745680409914,0.8174037089871612,0.37610619469026546,0.7343215507411631,0.7424557752341312
0.459007464192,0.748361534795,0.8174037089871612,0.3672566371681416,0.7428734321550741,0.7466181061394381
0.460104902159,0.751132030505,0.8088445078459345,0.3805309734513274,0.7445838084378563,0.7513007284079084
0.461178131935,0.753798260248,0.8131241084165478,0.37610619469026546,0.7514253135689852,0.7549427679500521
0.462287673996,0.756538965682,0.8159771754636235,0.3716814159292035,0.75769669327252,0.7611862643080125
0.463373007868,0.759205195424,0.8202567760342369,0.35840707964601765,0.7702394526795895,0.7658688865764829
0.464482549929,0.761886320305,0.818830242510699,0.3672566371681416,0.7805017103762828,0.7643080124869928
0.465579987896,0.764537654909,0.804564907275321,0.3805309734513274,0.7765108323831243,0.759105098855359
0.466705668751,0.76721877979,0.804564907275321,0.3849557522123893,0.7827822120866591,0.7627471383975026
0.467835384305,0.769899904671,0.804564907275321,0.3849557522123893,0.7879133409350056,0.767429760665973
0.468957030462,0.772521448999,0.8031383737517832,0.3849557522123893,0.7936145952109463,0.77159209157128
0.470082711317,0.775142993327,0.8059914407988589,0.37610619469026546,0.798175598631699,0.7741935483870968
0.471252773855,0.777839013346,0.8074179743223967,0.3805309734513274,0.799315849486887,0.7752341311134235
0.472394593504,0.780445662536,0.8131241084165478,0.3672566371681416,0.8015963511972634,0.7778355879292405
0.47354448255,0.783052311725,0.8102710413694723,0.3716814159292035,0.8055872291904219,0.7804370447450573
0.474722614485,0.785688751192,0.818830242510699,0.3672566371681416,0.8112884834663626,0.7835587929240375
0.475904781118,0.78831029552,0.8245363766048502,0.35840707964601765,0.814709236031927,0.7866805411030178
0.477095017147,0.790931839847,0.8273894436519259,0.35398230088495575,0.8209806157354618,0.791363163371488
0.478317530765,0.79359806959,0.8302425106990016,0.35398230088495575,0.8272519954389966,0.7950052029136316
0.479487593302,0.79611534795,0.8388017118402282,0.34513274336283184,0.8352337514253136,0.7986472424557752
0.480722211015,0.798751787417,0.8459343794579173,0.331858407079646,0.8557582668187,0.8028095733610822
0.48194875933,0.801343541468,0.8516405135520686,0.3274336283185841,0.8643101482326112,0.8048907388137357
0.483159168852,0.803890610105,0.8573466476462198,0.3274336283185841,0.8358038768529076,0.8064516129032259
0.484401855961,0.806467469018,0.8644793152639088,0.30973451327433627,0.8169897377423033,0.8054110301768991
0.485672785959,0.809074118208,0.8659058487874466,0.30973451327433627,0.799315849486887,0.8080124869927159
0.486915473068,0.811591396568,0.8659058487874466,0.30973451327433627,0.8152793614595211,0.8168574401664933
0.488182368368,0.814153360343,0.8601997146932954,0.30088495575221236,0.8204104903078677,0.8199791883454736
0.489481541255,0.816730219256,0.8587731811697576,0.30973451327433627,0.8175598631698974,0.8189386056191468
0.490748436554,0.819232602479,0.8601997146932954,0.30088495575221236,0.8164196123147092,0.8204994797086368
0.492043574743,0.821749880839,0.8644793152639088,0.30088495575221236,0.8249714937286203,0.8231009365244537
0.493346782328,0.824267159199,0.8673323823109843,0.28761061946902655,0.8244013683010262,0.823621227887617
0.494662094008,0.826769542421,0.8659058487874466,0.28761061946902655,0.8221208665906499,0.8231009365244537
0.495969336292,0.829242135367,0.8630527817403709,0.29203539823008845,0.8169897377423033,0.8210197710718002
0.497280613274,0.831684938036,0.8601997146932954,0.30088495575221236,0.8249714937286203,0.8257023933402705
0.498644341335,0.834202216397,0.8659058487874466,0.29646017699115046,0.8289623717217788,0.8272632674297608
0.499979826508,0.836645019066,0.8687589158345221,0.29203539823008845,0.8323831242873432,0.8267429760665973
0.501343554569,0.839102716873,0.8730385164051356,0.29203539823008845,0.8352337514253136,0.8288241415192508
0.502715352027,0.841545519542,0.8787446504992869,0.2831858407079646,0.8472063854047891,0.8324661810613945
0.504099253581,0.843988322212,0.8801711840228247,0.27876106194690264,0.8477765108323831,0.8350676378772113
0.505495259229,0.846416229743,0.8744650499286734,0.2831858407079646,0.8460661345496009,0.8371488033298647
0.506899334275,0.848844137274,0.8801711840228247,0.27876106194690264,0.8500570125427594,0.8407908428720084
0.508315513415,0.851257149666,0.8858773181169758,0.2743362831858407,0.8500570125427594,0.840270551508845
0.509743796651,0.853655266921,0.8887303851640513,0.2743362831858407,0.8597491448118586,0.8444328824141519
0.511155941093,0.856008698761,0.8887303851640513,0.26991150442477874,0.8580387685290763,0.8480749219562955
0.512604397821,0.858377025739,0.8801711840228247,0.2743362831858407,0.8574686431014823,0.8537981269510927
0.514089166835,0.860790038132,0.8659058487874466,0.28761061946902655,0.8620296465222349,0.858480749219563
0.515537623563,0.863098784557,0.8616262482168331,0.29203539823008845,0.8608893956670468,0.8579604578563996
0.517018357878,0.865437321258,0.855920114122682,0.30088495575221236,0.8477765108323831,0.8506763787721124
0.518511196288,0.86777585796,0.8587731811697576,0.29646017699115046,0.8409350057012543,0.8465140478668054
0.520016138794,0.870099499523,0.8644793152639088,0.29203539823008845,0.8363740022805017,0.8433922996878253
0.521533185394,0.872408245949,0.8644793152639088,0.29203539823008845,0.8432155074116306,0.848595213319459
0.5230381279,0.874657411821,0.8716119828815978,0.2831858407079646,0.8511972633979477,0.8537981269510927
0.524603590882,0.876981053384,0.8815977175463624,0.2743362831858407,0.8574686431014823,0.8590010405827264
0.526128706879,0.879215324118,0.8873038516405136,0.2610619469026549,0.8665906499429875,0.8636836628511967
0.527718378051,0.881509175405,0.8944365192582027,0.2566371681415929,0.8757126567844926,0.8709677419354839
0.529295945128,0.883743446139,0.8958630527817404,0.252212389380531,0.8905359179019384,0.8756503642039543
0.530857373411,0.885933031459,0.9029957203994294,0.247787610619469,0.9293044469783351,0.8787721123829345
0.532459148679,0.888152407054,0.9101283880171185,0.24336283185840707,0.9201824401368301,0.886576482830385
0.534048819851,0.890327097235,0.9172610556348074,0.23451327433628316,0.9424173318129989,0.8876170655567117
0.535674803308,0.892516682555,0.9158345221112697,0.23008849557522124,0.9144811858608894,0.8876170655567117
0.537312890861,0.894691372736,0.9215406562054208,0.23008849557522124,0.928164196123147,0.8876170655567117
0.53896308251,0.896851167779,0.9286733238231099,0.22566371681415925,0.927594070695553,0.8928199791883454
0.540605204761,0.898951382269,0.9343794579172612,0.22566371681415925,0.9093500570125428,0.8917793964620188
0.5422796046,0.901081387035,0.9372325249643367,0.22123893805309733,0.8922462941847206,0.8829344432882414
0.543998386121,0.903241182078,0.9372325249643367,0.2168141592920354,0.8848346636259977,0.8803329864724245
0.545676820658,0.905296711153,0.9229671897289587,0.23008849557522124,0.8893956670467503,0.8912591050988554
0.547395602179,0.907382030505,0.9072753209700429,0.23893805309734514,0.8911060433295325,0.8959417273673257
0.549126487795,0.909452454719,0.8815977175463624,0.252212389380531,0.8854047890535918,0.8964620187304891
0.550869477507,0.911507983794,0.8815977175463624,0.2566371681415929,0.8888255416191562,0.899063475546306
0.552628606012,0.913548617731,0.8887303851640513,0.252212389380531,0.8985176738882554,0.9047866805411031
0.554399838612,0.915559461392,0.8972895863052782,0.24336283185840707,0.9025085518814139,0.9063475546305931
0.556187210006,0.917570305052,0.9029957203994294,0.24336283185840707,0.9053591790193843,0.90894901144641
0.557958442606,0.91952156816,0.9101283880171185,0.24336283185840707,0.911060433295325,0.9125910509885536
0.55979826508,0.921517516683,0.9058487874465051,0.23893805309734514,0.9213226909920184,0.9203954214360042
0.561597740569,0.923438989514,0.8944365192582027,0.247787610619469,0.9236031927023945,0.9235171696149844
0.563413354852,0.925330672069,0.9015691868758917,0.24336283185840707,0.9161915621436716,0.9172736732570239
0.565297559007,0.927281935176,0.9115549215406562,0.23451327433628316,0.9127708095781072,0.9151925078043704
0.567137381481,0.929143827455,0.9201141226818831,0.23451327433628316,0.9019384264538198,0.90894901144641
0.569021585636,0.931020614871,0.9300998573466478,0.23008849557522124,0.9019384264538198,0.90894901144641
0.570889650999,0.932852716873,0.9300998573466478,0.21238938053097342,0.9053591790193843,0.9115504682622269
0.572802098043,0.934699714013,0.9300998573466478,0.21238938053097342,0.9122006841505131,0.9162330905306971
0.574730683881,0.936516920877,0.9286733238231099,0.21238938053097342,0.911630558722919,0.9172736732570239
0.576643130926,0.938289442326,0.9144079885877318,0.20353982300884954,0.9104903078677309,0.9203954214360042
0.578599959653,0.940061963775,0.9072753209700429,0.2168141592920354,0.9076396807297606,0.9224765868886576
0.580601170063,0.941849380362,0.912981455064194,0.2168141592920354,0.9253135689851767,0.9349635796045785
